# omega0=1, alpha=0.05
# theta0=0.8, theta_dot0=0
# t_start=0, t_end=200, h=0.00911928
#   t          theta(t)                 thetadot(t)       
0 8.000000000000000e-01 0.000000000000000e+00
9.119282013323059e-02 7.970231531012024e-01 -6.520574419742395e-02
1.823856402664613e-01 7.881279292696449e-01 -1.297363727182435e-01
2.735784603996920e-01 7.733931166959100e-01 -1.932136150553099e-01
3.647712805329227e-01 7.529322099136754e-01 -2.552539610959584e-01
4.559641006661534e-01 7.268940405305133e-01 -3.154654928139680e-01
5.471569207993838e-01 6.954636408128824e-01 -3.734460028415500e-01
6.383497409326140e-01 6.588632079620339e-01 -4.287827150943574e-01
7.295425610658441e-01 6.173530111239396e-01 -4.810538543418208e-01
8.207353811990743e-01 5.712320646583308e-01 -5.298322197846386e-01
9.119282013323045e-01 5.208383822072924e-01 -5.746908003865193e-01
1.003121021465535e+00 4.665486289317483e-01 -6.152103286161201e-01
1.094313841598765e+00 4.087770058327774e-01 -6.509885109791080e-01
1.185506661731995e+00 3.479732314036607e-01 -6.816505102907044e-01
1.276699481865225e+00 2.846195316967270e-01 -7.068601030250017e-01
1.367892301998455e+00 2.192266082557917e-01 -7.263308153899091e-01
1.459085122131685e+00 1.523286204141389e-01 -7.398362742229624e-01
1.550277942264916e+00 8.447728864211836e-02 -7.472190098097443e-01
1.641470762398146e+00 1.623529222563729e-02 -7.483970260195014e-01
1.732663582531376e+00 -5.183080948095994e-02 -7.433676067998846e-01
1.823856402664606e+00 -1.191578639936898e-01 -7.322080434257713e-01
1.915049222797836e+00 -1.851933351776973e-01 -7.150732199744441e-01
2.006242042931067e+00 -2.494021558464229e-01 -6.921902547211949e-01
2.097434863064297e+00 -3.112729731298929e-01 -6.638506306454529e-01
2.188627683197527e+00 -3.703235846022444e-01 -6.304004314703605e-01
2.279820503330757e+00 -4.261054250772449e-01 -5.922294120054498e-01
2.371013323463987e+00 -4.782070325935006e-01 -5.497596658216479e-01
2.462206143597217e+00 -5.262564904094351e-01 -5.034346137027135e-01
2.553398963730448e+00 -5.699229036353652e-01 -4.537089363850780e-01
2.644591783863678e+00 -6.089170197885847e-01 -4.010399339721942e-01
2.735784603996908e+00 -6.429911392614754e-01 -3.458806329004526e-01
2.826977424130138e+00 -6.719384834738010e-01 -2.886747984250577e-01
2.918170244263368e+00 -6.955921959225516e-01 -2.298538610645905e-01
3.009363064396598e+00 -7.138241461405463e-01 -1.698356387971303e-01
3.100555884529828e+00 -7.265436910497058e-01 -1.090246373775248e-01
3.191748704663059e+00 -7.336965248615932e-01 -4.781363906563466e-02
3.282941524796289e+00 -7.352637199223666e-01 1.341375738911037e-02
3.374134344929519e+00 -7.312610287878396e-01 7.428000953706687e-02
3.465327165062749e+00 -7.217384840306637e-01 1.344102912580471e-01
3.556519985195979e+00 -7.067802981681462e-01 1.934293117203582e-01
3.647712805329209e+00 -6.865050327687930e-01 2.509586507147969e-01
3.738905625462440e+00 -6.610659742773021e-01 3.066149421943401e-01
3.830098445595670e+00 -6.306516254807694e-01 3.600091995113166e-01
3.921291265728900e+00 -5.954861970823182e-01 4.107475225280756e-01
4.012484085862130e+00 -5.558299650269455e-01 4.584333561666198e-01
4.103676905995361e+00 -5.119793476882962e-01 5.026713807094678e-01
4.194869726128591e+00 -4.642665544612261e-01 5.430730069901795e-01
4.286062546261821e+00 -4.130586652021968e-01 5.792633282787623e-01
4.377255366395051e+00 -3.587560193003278e-01 6.108892525698030e-01
4.468448186528281e+00 -3.017898240871284e-01 6.376284151155208e-01
4.559641006661511e+00 -2.426189338055580e-01 6.591983651532872e-01
4.650833826794742e+00 -1.817258001463803e-01 6.753654476174037e-01
4.742026646927972e+00 -1.196116498070790e-01 6.859527735472100e-01
4.833219467061202e+00 -5.679099897179083e-02 6.908467011253970e-01
4.924412287194432e+00 6.214336172059597e-03 6.900013354757122e-01
5.015605107327662e+00 6.888153488056481e-02 6.834406941959770e-01
5.106797927460892e+00 1.306931509639988e-01 6.712583637955873e-01
5.197990747594122e+00 1.911433462775714e-01 6.536146701154929e-01
5.289183567727353e+00 2.497437604042017e-01 6.307315805249731e-01
5.380376387860583e+00 3.060288261861041e-01 6.028857248242682e-01
5.471569207993813e+00 3.595603821496454e-01 5.704000471449510e-01
5.562762028127043e+00 4.099314832337068e-01 5.336346714733871e-01
5.653954848260273e+00 4.567693653537995e-01 4.929775756376153e-01
5.745147668393503e+00 4.997375720719160e-01 4.488356273745325e-01
5.836340488526734e+00 5.385372985732628e-01 4.016264521258784e-01
5.927533308659964e+00 5.729080460072931e-01 3.517714896562468e-01
6.018726128793194e+00 6.026277061094600e-01 2.996904703781046e-01
6.109918948926424e+00 6.275122112678708e-01 2.457974158471774e-01
6.201111769059654e+00 6.474148893185300e-01 1.904981516966410e-01
6.292304589192884e+00 6.622256566149325e-01 1.341892221120990e-01
6.383497409326115e+00 6.718701690500527e-01 7.725801610202267e-02
6.474690229459345e+00 6.763090306029027e-01 2.008385773950607e-02
6.565883049592575e+00 6.755371344765294e-01 -3.696022620039312e-02
6.657075869725805e+00 6.695831846488206e-01 -9.350536954376178e-02
6.748268689859035e+00 6.585094171108542e-01 -1.491846764326547e-01
6.839461509992265e+00 6.424115114664368e-01 -2.036312872059808e-01
6.930654330125495e+00 6.214186560366740e-01 -2.564769924811253e-01
7.021847150258726e+00 5.956937042474643e-01 -3.073516576482394e-01
7.113039970391956e+00 5.654333380117921e-01 -3.558836772728539e-01
7.204232790525186e+00 5.308681362739752e-01 -4.017016223156212e-01
7.295425610658416e+00 4.922624351531313e-01 -4.444371721366115e-01
7.386618430791646e+00 4.499138614945603e-01 -4.837293387210246e-01
7.477811250924876e+00 4.041524252430836e-01 -5.192298951550067e-01
7.569004071058107e+00 3.553390686690209e-01 -5.506098192253452e-01
7.660196891191337e+00 3.038635922997305e-01 -5.775664637425310e-01
7.751389711324567e+00 2.501419078375614e-01 -5.998310774598014e-01
7.842582531457797e+00 1.946126058417855e-01 -6.171762349414522e-01
7.933775351591027e+00 1.377328680209998e-01 -6.294227005173445e-01
8.024968171724257e+00 7.997379730174579e-02 -6.364452582390875e-01
8.116160991857488e+00 2.181527956299243e-02 -6.381770900601647e-01
8.207353811990718e+00 -3.625947487337294e-02 -6.346123764262946e-01
8.298546632123948e+00 -9.376953772198887e-02 -6.258069194450846e-01
8.389739452257178e+00 -1.502418332988792e-01 -6.118767361203676e-01
8.480932272390408e+00 -2.052164914832788e-01 -5.929947218032561e-01
8.572125092523638e+00 -2.582518171073979e-01 -5.693856251995429e-01
8.663317912656868e+00 -3.089287372923069e-01 -5.413196909438517e-01
8.754510732790099e+00 -3.568546245462437e-01 -5.091054029124206e-01
8.845703552923329e+00 -4.016664348332861e-01 -4.730817955589552e-01
8.936896373056559e+00 -4.430331423481980e-01 -4.336107918635796e-01
9.028089193189789e+00 -4.806574927022547e-01 -3.910699802981265e-01
9.119282013323019e+00 -5.142771306018403e-01 -3.458461684475144e-01
9.210474833456249e+00 -5.436651847615166e-01 -2.983299582741312e-01
9.301667653589480e+00 -5.686304105979644e-01 -2.489114881556098e-01
9.392860473722710e+00 -5.890169999818491e-01 -1.979773890522219e-01
9.484053293855940e+00 -6.047041675109384e-01 -1.459089135056871e-01
9.575246113989170e+00 -6.156056154660375e-01 -9.308112114653774e-02
9.666438934122400e+00 -6.216689661799064e-01 -3.986294517285843e-02
9.757631754255630e+00 -6.228752324581743e-01 1.338207877384718e-02
9.848824574388860e+00 -6.192383753859551e-01 6.629466755598175e-02
9.940017394522091e+00 -6.108049756808199e-01 1.185184890720903e-01
1.003121021465532e+01 -5.976540209392578e-01 1.696989648260340e-01
1.012240303478855e+01 -5.798967877980020e-01 2.194824257019405e-01
1.021359585492178e+01 -5.576767762645481e-01 2.675158472362783e-01
1.030478867505501e+01 -5.311696343189032e-01 3.134473561853939e-01
1.039598149518824e+01 -5.005829954169703e-01 3.569276539488576e-01
1.048717431532147e+01 -4.661561408013388e-01 3.976124446240986e-01
1.057836713545470e+01 -4.281593935619187e-01 4.351658871662392e-01
1.066955995558793e+01 -3.868931530507675e-01 4.692650146455301e-01
1.076075277572116e+01 -3.426864871205924e-01 4.996049829054390e-01
1.085194559585439e+01 -2.958952158621752e-01 5.259049316997493e-01
1.094313841598762e+01 -2.468994436146314e-01 5.479141707068770e-01
1.103433123612085e+01 -1.961005248811487e-01 5.654183484808201e-01
1.112552405625408e+01 -1.439174825637507e-01 5.782452318708680e-01
1.121671687638731e+01 -9.078293117676238e-02 5.862697226172053e-01
1.130790969652054e+01 -3.713859053538560e-02 5.894177697879543e-01
1.139910251665377e+01 1.656949614721189e-02 5.876689008064553e-01
1.149029533678700e+01 6.989590452662706e-02 5.810571852538979e-01
1.158148815692023e+01 1.224007845089623e-01 5.696705558774942e-01
1.167268097705346e+01 1.736546799677020e-01 5.536485290287837e-01
1.176387379718669e+01 2.232430731006578e-01 5.331784797259138e-01
1.185506661731992e+01 2.707705324486628e-01 5.084907230187705e-01
1.194625943745315e+01 3.158643699973266e-01 4.798527240790101e-01
1.203745225758638e+01 3.581777442301656e-01 4.475627987879515e-01
1.212864507771961e+01 3.973921795318908e-01 4.119436730262328e-01
1.221983789785284e+01 4.332195050337551e-01 3.733362447600830e-01
1.231103071798607e+01 4.654032452936444e-01 3.320938438383507e-01
1.240222353811930e+01 4.937195191522549e-01 2.885772175334360e-01
1.249341635825254e+01 5.179775204537315e-01 2.431503932796627e-01
1.258460917838577e+01 5.380196645300814e-01 1.961774913013000e-01
1.267580199851900e+01 5.537214875208435e-01 1.480204851185424e-01
1.276699481865223e+01 5.649913823239975e-01 9.903784182813202e-02
1.285818763878546e+01 5.717702461777817e-01 4.958391940258456e-02
1.294938045891869e+01 5.740311016697631e-01 8.956369420063184e-06
1.304057327905192e+01 5.717787365409993e-01 -4.934053964878131e-02
1.313176609918515e+01 5.650493891691493e-01 -9.812121435373551e-02
1.322295891931838e+01 5.539104871919226e-01 -1.459923143691688e-01
1.331415173945161e+01 5.384604274262840e-01 -1.926153673768164e-01
1.340534455958484e+01 5.188283670529509e-01 -2.376542845080724e-01
1.349653737971807e+01 4.951739799377996e-01 -2.807760466075329e-01
1.358773019985130e+01 4.676871188910532e-01 -3.216520977665356e-01
1.367892301998453e+01 4.365873155187701e-01 -3.599605218219130e-01
1.377011584011776e+01 4.021230449130623e-01 -3.953890215770877e-01
1.386130866025099e+01 3.645706834175798e-01 -4.276386585025410e-01
1.395250148038422e+01 3.242330945043390e-01 -4.564282459111308e-01
1.404369430051745e+01 2.814377904642233e-01 -4.814992255285692e-01
1.413488712065068e+01 2.365346357533100e-01 -5.026208013599853e-01
1.422607994078391e+01 1.898930805436183e-01 -5.195950615860553e-01
1.431727276091714e+01 1.418989388719634e-01 -5.322617943991880e-01
1.440846558105037e+01 9.295075288216777e-02 -5.405027015326256e-01
1.449965840118360e+01 4.345581082395415e-02 -5.442447360411606e-01
1.459085122131683e+01 -6.174090574946769e-03 -5.434623382866018e-01
1.468204404145006e+01 -5.552703112160049e-02 -5.381784127372810e-01
1.477323686158329e+01 -1.041953806969597e-01 -5.284639720317316e-01
1.486442968171652e+01 -1.517801198802423e-01 -5.144364656474483e-01
1.495562250184975e+01 -1.978949518997197e-01 -4.962568993443658e-01
1.504681532198298e+01 -2.421701035004277e-01 -4.741259295009602e-01
1.513800814211621e+01 -2.842557319949366e-01 -4.482791762195367e-01
1.522920096224944e+01 -3.238248798632738e-01 -4.189820357755155e-01
1.532039378238267e+01 -3.605759445776970e-01 -3.865242846732984e-01
1.541158660251590e+01 -3.942346575890979e-01 -3.512147552012831e-01
1.550277942264913e+01 -4.245555905692838e-01 -3.133763293450137e-01
1.559397224278236e+01 -4.513232273947150e-01 -2.733414492925589e-01
1.568516506291559e+01 -4.743526558254278e-01 -2.314482844158818e-01
1.577635788304882e+01 -4.934899427597791e-01 -1.880376323646483e-01
1.586755070318205e+01 -5.086122612175267e-01 -1.434505709079140e-01
1.595874352331528e+01 -5.196278361285739e-01 -9.802682146654587e-02
1.604993634344851e+01 -5.264757702053562e-01 -5.210373773696590e-02
1.614112916358174e+01 -5.291258014819986e-01 -6.015795112127300e-03
1.623232198371497e+01 -5.275780314522155e-01 3.990557046979244e-02
1.632351480384820e+01 -5.218626481085483e-01 8.533194194528999e-02
1.641470762398143e+01 -5.120396525491876e-01 1.299378923255473e-01
1.650590044411466e+01 -4.981985821166512e-01 1.734011168819368e-01
1.659709326424789e+01 -4.804582081686458e-01 2.154028815215848e-01
1.668828608438112e+01 -4.589661734192625e-01 2.556289193175638e-01
1.677947890451435e+01 -4.338985231459584e-01 2.937708752572530e-01
1.687067172464758e+01 -4.054590771876495e-01 3.295283595805460e-01
1.696186454478081e+01 -3.738785862144370e-01 3.626116239628804e-01
1.705305736491404e+01 -3.394136167282937e-01 3.927448243031526e-01
1.714425018504727e+01 -3.023451149325835e-01 4.196697818382991e-01
1.723544300518050e+01 -2.629766099685542e-01 4.431501043230254e-01
1.732663582531373e+01 -2.216320316846947e-01 4.629754852510628e-01
1.741782864544696e+01 -1.786531363137027e-01 4.789659659105200e-01
1.750902146558019e+01 -1.343965540290221e-01 4.909759264791456e-01
1.760021428571342e+01 -8.923049385777267e-02 4.988975714461707e-01
1.769140710584665e+01 -4.353116214453335e-02 5.026636929342079e-01
1.778259992597988e+01 2.321031057113903e-03 5.022495325591591e-01
1.787379274611311e+01 4.794538925252625e-02 4.976736157396207e-01
1.796498556624634e+01 9.296487341568702e-02 4.889974972982301e-01
1.805617838637957e+01 1.370099731450665e-01 4.763244277433436e-01
1.814737120651280e+01 1.797224097247984e-01 4.597970190055199e-01
1.823856402664603e+01 2.207585858255734e-01 4.395940500157806e-01
1.832975684677927e+01 2.597927117010512e-01 4.159266007642174e-01
1.842094966691250e+01 2.965195564929140e-01 3.890337344881258e-01
1.851214248704573e+01 3.306567939805355e-01 3.591779596188373e-01
1.860333530717896e+01 3.619469330642216e-01 3.266406964077987e-01
1.869452812731219e+01 3.901588428376751e-01 2.917179499552619e-01
1.878572094744542e+01 4.150888989362371e-01 2.547163552359820e-01
1.887691376757865e+01 4.365617909561407e-01 2.159497149576127e-01
1.896810658771188e+01 4.544310395432195e-01 1.757361021447550e-01
1.905929940784511e+01 4.685792760564995e-01 1.343955503078727e-01
1.915049222797834e+01 4.789183376759491e-01 9.224830833743179e-02
1.924168504811157e+01 4.853892268700337e-01 4.961359742075127e-02
1.933287786824480e+01 4.879619768878117e-01 6.808775027261591e-03
1.942407068837803e+01 4.866354551340500e-01 -3.585121267221995e-02
1.951526350851126e+01 4.814371247285182e-01 -7.805422327750411e-02
1.960645632864449e+01 4.724227720658276e-01 -1.194912945155824e-01
1.969764914877772e+01 4.596761955948363e-01 -1.598571403235749e-01
1.978884196891095e+01 4.433088391157940e-01 -1.988508908846065e-01
1.988003478904418e+01 4.234593423995911e-01 -2.361771812570922e-01
1.997122760917741e+01 4.002929735641486e-01 -2.715476663654888e-01
2.006242042931064e+01 3.740009020207352e-01 -3.046830069391262e-01
2.015361324944387e+01 3.447992684433321e-01 -3.353153328856985e-01
2.024480606957710e+01 3.129280094830000e-01 -3.631911494706738e-01
2.033599888971033e+01 2.786494000136966e-01 -3.880746099984192e-01
2.042719170984356e+01 2.422462844760097e-01 -4.097510394042804e-01
2.051838452997679e+01 2.040199810154931e-01 -4.280305595348975e-01
2.060957735011002e+01 1.642878569260446e-01 -4.427516422014311e-01
2.070077017024325e+01 1.233805904535908e-01 -4.537844032494410e-01
2.079196299037648e+01 8.163915110658636e-02 -4.610334520085775e-01
2.088315581050971e+01 3.941154693256294e-02 -4.644401264743526e-01
2.097434863064294e+01 -2.950598587835212e-03 -4.639839748661325e-01
2.106554145077617e+01 -4.509556652506967e-02 -4.596833866699356e-01
2.115673427090940e+01 -8.667507930336844e-02 -4.515953273629453e-01
2.124792709104263e+01 -1.273477725867455e-01 -4.398141861345965e-01
2.133911991117586e+01 -1.667825238551026e-01 -4.244697999772425e-01
2.143031273130909e+01 -2.046615673102652e-01 -4.057247655701823e-01
2.152150555144232e+01 -2.406833367294479e-01 -3.837711882320317e-01
2.161269837157555e+01 -2.745649927302721e-01 -3.588270419161768e-01
2.170389119170878e+01 -3.060446073504339e-01 -3.311323243410732e-01
2.179508401184201e+01 -3.348829955411851e-01 -3.009451870149253e-01
2.188627683197524e+01 -3.608651988692655e-01 -2.685382026551021e-01
2.197746965210847e+01 -3.838016403487514e-01 -2.341949048874544e-01
2.206866247224170e+01 -4.035289800806541e-01 -1.982067003326702e-01
2.215985529237493e+01 -4.199107087651708e-01 -1.608702146300635e-01
2.225104811250816e+01 -4.328375199733902e-01 -1.224850948200307e-01
2.234224093264139e+01 -4.422275023999141e-01 -8.335225356953674e-02
2.243343375277462e+01 -4.480261904692837e-01 -4.377250815997105e-02
2.252462657290785e+01 -4.502065061117670e-01 -4.045540524758276e-03
2.261581939304108e+01 -4.487686168482931e-01 3.553091508159241e-02
2.270701221317431e+01 -4.437397261887580e-01 7.466176245690788e-02
2.279820503330754e+01 -4.351738024418488e-01 1.130552221808341e-01
2.288939785344077e+01 -4.231512420497316e-01 1.504236061356223e-01
2.298059067357400e+01 -4.077784541705813e-01 1.864842851611775e-01
2.307178349370723e+01 -3.891873450727088e-01 2.209609303792387e-01
2.316297631384046e+01 -3.675346745573482e-01 2.535850859195063e-01
2.325416913397369e+01 -3.430012525962775e-01 2.840981029877335e-01
2.334536195410692e+01 -3.157909430518369e-01 3.122534337803197e-01
2.343655477424015e+01 -2.861294429966524e-01 3.378192504067382e-01
2.352774759437338e+01 -2.542628108487169e-01 3.605813208451606e-01
2.361894041450661e+01 -2.204557241571174e-01 3.803460434449269e-01
2.371013323463984e+01 -1.849894580589236e-01 3.969435161605070e-01
2.380132605477307e+01 -1.481595875918946e-01 4.102304990173910e-01
2.389251887490630e+01 -1.102734303948745e-01 4.200931203448570e-01
2.398371169503953e+01 -7.164725990239444e-02 4.264491804459506e-01
2.407490451517276e+01 -3.260333190218088e-02 4.292499210392439e-01
2.416609733530600e+01 6.533221754632850e-03 4.284811543083478e-01
2.425729015543923e+01 4.543757033376516e-02 4.241636798982847e-01
2.434848297557246e+01 8.378836561683517e-02 4.163529588626451e-01
2.443967579570569e+01 1.212708599888210e-01 4.051380568414114e-01
2.453086861583892e+01 1.575798967440282e-01 3.906399107840313e-01
2.462206143597215e+01 1.924227148357230e-01 3.730090106307002e-01
2.471325425610538e+01 2.255215200265805e-01 3.524226164230030e-01
2.480444707623861e+01 2.566157863256697e-01 3.290816501592740e-01
2.489563989637184e+01 2.854642647346647e-01 3.032074092903768e-01
2.498683271650507e+01 3.118466896403572e-01 2.750382451713180e-01
2.507802553663830e+01 3.355651857091907e-01 2.448263361756127e-01
2.516921835677153e+01 3.564453890306803e-01 2.128346634650338e-01
2.526041117690476e+01 3.743373048884447e-01 1.793342699978522e-01
2.535160399703799e+01 3.891159305086090e-01 1.446018528433805e-01
2.544279681717122e+01 4.006816742777920e-01 1.089177077477098e-01
2.553398963730445e+01 4.089606032847264e-01 7.256401537103072e-02
2.562518245743768e+01 4.139045488517649e-01 3.582343248551937e-02
2.571637527757091e+01 4.154910953591017e-01 -1.022069974884633e-03
2.580756809770414e+01 4.137234716015309e-01 -3.769219588159442e-02
2.589876091783737e+01 4.086303566954747e-01 -7.390922336628671e-02
2.598995373797060e+01 4.002656047458305e-01 -1.093989014755888e-01
2.608114655810383e+01 3.887078846672155e-01 -1.438914276740898e-01
2.617233937823706e+01 3.740602242962102e-01 -1.771225807560743e-01
2.626353219837029e+01 3.564494417587941e-01 -2.088350691073211e-01
2.635472501850352e+01 3.360254424435598e-01 -2.387801348308544e-01
2.644591783863675e+01 3.129603572724264e-01 -2.667194309939777e-01
2.653711065876998e+01 2.874474975502969e-01 -2.924271634298259e-01
2.662830347890321e+01 2.597001036790846e-01 -3.156924616830418e-01
2.671949629903644e+01 2.299498694523681e-01 -3.363219176254682e-01
2.681068911916967e+01 1.984452303447077e-01 -3.541422069481704e-01
2.690188193930290e+01 1.654494128330611e-01 -3.690026901473754e-01
