# omega0=1, alpha=0.2
# theta0=0.8, theta_dot0=0.8
# t_start=0, t_end=200, h=0.00905358
#   t          theta(t)                 thetadot(t)       
0 8.000000000000000e-01 8.000000000000000e-01
1.810716226852906e-01 9.385429080673712e-01 7.278714031683647e-01
3.621432453705811e-01 1.062824425464438e+00 6.429834357172580e-01
5.432148680558717e-01 1.170793914806715e+00 5.481149794740380e-01
7.242864907411632e-01 1.260849679825540e+00 4.454211413510745e-01
9.053581134264548e-01 1.331717124421923e+00 3.363591181703924e-01
1.086429736111745e+00 1.382325587873913e+00 2.217419865858961e-01
1.267501358797035e+00 1.411703808246692e+00 1.018848473225450e-01
1.448572981482324e+00 1.418907817881357e+00 -2.318739134489175e-02
1.629644604167613e+00 1.402990438744476e+00 -1.534907793731357e-01
1.810716226852902e+00 1.363018788797608e+00 -2.888025863837106e-01
1.991787849538192e+00 1.298144616365608e+00 -4.283591295653392e-01
2.172859472223481e+00 1.207730334146934e+00 -5.705465463608624e-01
2.353931094908770e+00 1.091529228946165e+00 -7.126198775044722e-01
2.535002717594060e+00 9.499091937343734e-01 -8.505174246397884e-01
2.716074340279349e+00 7.840940539559673e-01 -9.788710107491474e-01
2.897145962964638e+00 5.963766334088200e-01 -1.091325445018796e+00
3.078217585649928e+00 3.902399225729516e-01 -1.181238379012520e+00
3.259289208335217e+00 1.703195368974930e-01 -1.242711375551456e+00
3.440360831020506e+00 -5.783495044683126e-02 -1.271728689728044e+00
3.621432453705796e+00 -2.881879430000960e-01 -1.267044617108371e+00
3.802504076391085e+00 -5.147568883861733e-01 -1.230479365354898e+00
3.983575699076374e+00 -7.321392762108181e-01 -1.166492595666575e+00
4.164647321761672e+00 -9.359071896166347e-01 -1.081195496495721e+00
4.345718944446970e+00 -1.122798538989963e+00 -9.811588262724281e-01
4.526790567132268e+00 -1.290701953149537e+00 -8.723760605010085e-01
4.707862189817567e+00 -1.438485260009337e+00 -7.595917995644310e-01
4.888933812502865e+00 -1.565738862156437e+00 -6.460258961498772e-01
5.070005435188163e+00 -1.672498785603939e+00 -5.334046513221091e-01
5.251077057873461e+00 -1.758993626043288e+00 -4.221729385228949e-01
5.432148680558759e+00 -1.825437863586932e+00 -3.117793217833168e-01
5.613220303244058e+00 -1.871877923462339e+00 -2.009654746554695e-01
5.794291925929356e+00 -1.898088447223952e+00 -8.802880000983862e-02
5.975363548614654e+00 -1.903513258924033e+00 2.894541883399838e-02
6.156435171299952e+00 -1.887246545112509e+00 1.518687096808616e-01
6.337506793985250e+00 -1.848053230459177e+00 2.824272989679407e-01
6.518578416670548e+00 -1.784432325578546e+00 4.218246878270374e-01
6.699650039355847e+00 -1.694732211439033e+00 5.704613381236390e-01
6.880721662041145e+00 -1.577331002744153e+00 7.275352753618385e-01
7.061793284726443e+00 -1.430895644678154e+00 8.905783382878855e-01
7.242864907411741e+00 -1.254725714101999e+00 1.055003910566270e+00
7.423936530097039e+00 -1.049166141243574e+00 1.213834796347714e+00
7.605008152782338e+00 -8.160334738919829e-01 1.357875308744829e+00
7.786079775467636e+00 -5.589489269458198e-01 1.476608370473406e+00
7.967151398152934e+00 -2.834329378425741e-01 1.559921997310572e+00
8.148223020838218e+00 3.368713198522237e-03 1.600359090563499e+00
8.329294643523498e+00 2.933580139690223e-01 1.595122101510829e+00
8.510366266208779e+00 5.784290968233141e-01 1.546935124372018e+00
8.691437888894059e+00 8.514258908970541e-01 1.463317987447655e+00
8.872509511579340e+00 1.106844779496256e+00 1.354613560171201e+00
9.053581134264620e+00 1.341132402895825e+00 1.231650050448919e+00
9.234652756949901e+00 1.552593197678895e+00 1.103876554755215e+00
9.415724379635181e+00 1.741035469486558e+00 9.783614298499345e-01
9.596796002320461e+00 1.907311799080177e+00 8.595893236200721e-01
9.777867625005742e+00 2.052873703497317e+00 7.497678099648680e-01
9.958939247691022e+00 2.179405014107968e+00 6.493474250225741e-01
1.014001087037630e+01 2.288552708545751e+00 5.575536932917434e-01
1.032108249306158e+01 2.381747052129378e+00 4.728320866904067e-01
1.050215411574686e+01 2.460091927654738e+00 3.931775506541509e-01
1.068322573843214e+01 2.524304862079445e+00 3.163569369459882e-01
1.086429736111742e+01 2.574689254559506e+00 2.400462528318986e-01
1.104536898380270e+01 2.611125527897848e+00 1.619061267332632e-01
1.122644060648799e+01 2.633071908239601e+00 7.961573099908259e-02
1.140751222917327e+01 2.639568856642188e+00 -9.118293557995360e-03
1.158858385185855e+01 2.629243945912777e+00 -1.065634821444611e-01
1.176965547454383e+01 2.600316602994821e+00 -2.149586133650396e-01
1.195072709722911e+01 2.550605230636345e+00 -3.364864356014316e-01
1.213179871991439e+01 2.477543587188013e+00 -4.731926922099356e-01
1.231287034259967e+01 2.378219910011659e+00 -6.268069394679358e-01
1.249394196528495e+01 2.249462017044062e+00 -7.984017719180352e-01
1.267501358797023e+01 2.088004559467652e+00 -9.878130989569158e-01
1.285608521065551e+01 1.890788013651129e+00 -1.192758477057846e+00
1.303715683334079e+01 1.655443914281117e+00 -1.407679906058986e+00
1.321822845602607e+01 1.380997966074760e+00 -1.622564750514437e+00
1.339930007871135e+01 1.068743952153365e+00 -1.822380387558564e+00
1.358037170139663e+01 7.230906223131079e-01 -1.988115738781614e+00
1.376144332408191e+01 3.520063089485601e-01 -2.100254039024354e+00
1.394251494676719e+01 -3.336934067367017e-02 -2.144274571534280e+00
1.412358656945247e+01 -4.201320306796291e-01 -2.115882667671334e+00
1.430465819213775e+01 -7.957031048325326e-01 -2.022886621890697e+00
1.448572981482303e+01 -1.149834729519162e+00 -1.882427036894911e+00
1.466680143750831e+01 -1.475806681359892e+00 -1.715313265765288e+00
1.484787306019359e+01 -1.770577151450051e+00 -1.540628371278128e+00
1.502894468287887e+01 -2.034151310022617e+00 -1.372657104122686e+00
1.521001630556415e+01 -2.268625327208288e+00 -1.220267254518108e+00
1.539108792824944e+01 -2.477271103370449e+00 -1.087791187034296e+00
1.557215955093472e+01 -2.663838227216328e+00 -9.764058216744503e-01
1.575323117362000e+01 -2.832102312623141e+00 -8.854100299551243e-01
1.593430279630528e+01 -2.985616565846503e+00 -8.131780305096028e-01
1.611537441899056e+01 -3.127605212618837e+00 -7.577813161577713e-01
1.629644604167584e+01 -3.260944757202286e+00 -7.173508500354746e-01
1.647751766436112e+01 -3.388193483374765e+00 -6.902600710140233e-01
1.665858928704640e+01 -3.511642835498303e+00 -6.751923782487828e-01
1.683966090973168e+01 -3.633373930819910e+00 -6.711358559226812e-01
1.702073253241696e+01 -3.755308558983992e+00 -6.773307462003186e-01
1.720180415510224e+01 -3.879247471725099e+00 -6.931830753891312e-01
1.738287577778752e+01 -4.006890454909389e+00 -7.181504015934588e-01
1.756394740047280e+01 -4.139833390186010e+00 -7.516022585857181e-01
1.774501902315808e+01 -4.279537965759671e+00 -7.926583883008221e-01
1.792609064584336e+01 -4.427270622647097e+00 -8.400126718409600e-01
1.810716226852864e+01 -4.584009550474554e+00 -8.917602641265566e-01
1.828823389121392e+01 -4.750322925971082e+00 -9.452593806219100e-01
1.846930551389920e+01 -4.926228690784725e+00 -9.970745360922068e-01
1.865037713658448e+01 -5.111055675364956e+00 -1.043057684594042e+00
1.883144875926977e+01 -5.303335783925655e+00 -1.078616366575538e+00
1.901252038195505e+01 -5.500763110950250e+00 -1.099182455055822e+00
1.919359200464033e+01 -5.700252803985984e+00 -1.100830108074038e+00
1.937466362732561e+01 -5.898116260811872e+00 -1.080916193760654e+00
1.955573525001089e+01 -6.090341308919155e+00 -1.038569783633552e+00
1.973680687269617e+01 -6.272935252787512e+00 -9.748773063022744e-01
1.991787849538145e+01 -6.442268321132790e+00 -8.927017886170393e-01
2.009895011806673e+01 -6.595355009050699e+00 -7.961972384796757e-01
2.028002174075201e+01 -6.730030985552015e+00 -6.901700339968129e-01
2.046109336343729e+01 -6.845013622538444e+00 -5.794582202546843e-01
2.064216498612257e+01 -6.939861677480386e+00 -4.684530319195878e-01
2.082323660880785e+01 -7.014865540305327e+00 -3.608127122800789e-01
2.100430823149313e+01 -7.070902391972343e+00 -2.593550061911276e-01
2.118537985417841e+01 -7.109284541987516e+00 -1.660799669202142e-01
2.136645147686369e+01 -7.131619459118584e+00 -8.226751055373441e-02
2.154752309954897e+01 -7.139690646421713e+00 -8.603651554729926e-03
2.172859472223425e+01 -7.135361538323219e+00 5.469526077754537e-02
2.190966634491953e+01 -7.120500398418950e+00 1.077764844185222e-01
2.209073796760481e+01 -7.096922311082552e+00 1.510683372509447e-01
2.227180959029009e+01 -7.066344073294740e+00 1.852196115269605e-01
2.245288121297537e+01 -7.030348443681059e+00 2.110557795128118e-01
2.263395283566065e+01 -6.990355285810112e+00 2.295455534740036e-01
2.281502445834593e+01 -6.947598298975953e+00 2.417716739922653e-01
2.299609608103122e+01 -6.903107033742483e+00 2.489010810658180e-01
2.317716770371650e+01 -6.857694610748501e+00 2.521513947327514e-01
2.335823932640178e+01 -6.811951946744151e+00 2.527525108672575e-01
2.353931094908706e+01 -6.766249350714029e+00 2.519038039889351e-01
2.372038257177234e+01 -6.720746139926840e+00 2.507287214160760e-01
2.390145419445762e+01 -6.675408522133012e+00 2.502293594708774e-01
2.408252581714290e+01 -6.630035484496256e+00 2.512439416460787e-01
2.426359743982818e+01 -6.584291901899136e+00 2.544100539836482e-01
2.444466906251346e+01 -6.537747587777335e+00 2.601361534516538e-01
2.462574068519874e+01 -6.489920598545929e+00 2.685833671651198e-01
2.480681230788402e+01 -6.440322788371748e+00 2.796590287210532e-01
2.498788393056930e+01 -6.388505403591482e+00 2.930227917691462e-01
2.516895555325458e+01 -6.334102411647573e+00 3.081055146362931e-01
2.535002717593986e+01 -6.276869288157894e+00 3.241403887962984e-01
2.553109879862514e+01 -6.216715154637463e+00 3.402049527585579e-01
2.571217042131042e+01 -6.153726489261208e+00 3.552716909610470e-01
2.589324204399570e+01 -6.088181139018220e+00 3.682639326545422e-01
2.607431366668098e+01 -6.020552038720697e+00 3.781128925553147e-01
2.625538528936626e+01 -5.951500850859967e+00 3.838111576367066e-01
2.643645691205154e+01 -5.881862597417784e+00 3.844579619760211e-01
2.661752853473682e+01 -5.812623139356931e+00 3.792923719565146e-01
2.679860015742210e+01 -5.744891933269917e+00 3.677120381607745e-01
2.697967178010738e+01 -5.679872735306509e+00 3.492772672471241e-01
2.716074340279267e+01 -5.618834759094659e+00 3.237024619733881e-01
2.734181502547795e+01 -5.563086230853992e+00 2.908390289993500e-01
2.752288664816323e+01 -5.513951402140954e+00 2.506552753914906e-01
2.770395827084851e+01 -5.472751016123964e+00 2.032193803800717e-01
2.788502989353379e+01 -5.440785137273089e+00 1.486912109927889e-01
2.806610151621907e+01 -5.419316297247319e+00 8.732767259918414e-02
2.824717313890435e+01 -5.409550203285963e+00 1.950462159972119e-02
2.842824476158963e+01 -5.412610893929720e+00 -5.424377048021445e-02
2.860931638427491e+01 -5.429507295882784e+00 -1.331699441983318e-01
2.879038800696019e+01 -5.461088736269903e+00 -2.162471807718070e-01
2.897145962964547e+01 -5.507988225804104e+00 -3.021021858925370e-01
2.915253125233075e+01 -5.570554387264749e+00 -3.889597910263541e-01
2.933360287501603e+01 -5.648775826870891e+00 -4.746181790165706e-01
2.951467449770131e+01 -5.742205384789011e+00 -5.564759244446394e-01
2.969574612038659e+01 -5.849895503666829e+00 -6.316305534218186e-01
2.987681774307187e+01 -5.970358833594122e+00 -6.970592704007946e-01
3.005788936575715e+01 -6.101568618442903e+00 -7.498744663525935e-01
3.023896098844243e+01 -6.241009900432748e+00 -7.876220407690850e-01
3.042003261112771e+01 -6.385784577969078e+00 -8.085672330719955e-01
3.060110423381299e+01 -6.532762088459791e+00 -8.119018930744408e-01
3.078217585649827e+01 -6.678756147872952e+00 -7.978179603717940e-01
3.096324747918355e+01 -6.820700640847944e+00 -7.674242719097238e-01
3.114431910186883e+01 -6.955797424459568e+00 -7.225261792244381e-01
3.132539072455411e+01 -7.081615740976776e+00 -6.653224559676847e-01
3.150646234723940e+01 -7.196134463467675e+00 -5.980883551251256e-01
3.168753396992468e+01 -7.297730408293339e+00 -5.229052562068327e-01
3.186860559260996e+01 -7.385124933079651e+00 -4.414742478883606e-01
3.204967721529525e+01 -7.457305417729467e+00 -3.550251189464577e-01
3.223074883798061e+01 -7.513438394056895e+00 -2.643126513908142e-01
3.241182046066596e+01 -7.552788583353811e+00 -1.696822654213651e-01
3.259289208335131e+01 -7.574654623874211e+00 -7.118571641139249e-02
3.277396370603666e+01 -7.578329062813929e+00 3.126876033518979e-02
3.295503532872201e+01 -7.563087827440629e+00 1.377423525021240e-01
3.313610695140736e+01 -7.528212856897493e+00 2.480745090376628e-01
3.331717857409271e+01 -7.473050393896079e+00 3.616816384823421e-01
3.349825019677807e+01 -7.397105795951130e+00 4.773578091172867e-01
3.367932181946342e+01 -7.300172610350781e+00 5.931006805684761e-01
3.386039344214877e+01 -7.182488071857098e+00 7.060016331646785e-01
3.404146506483412e+01 -7.044898665887902e+00 8.122544443200798e-01
3.422253668751947e+01 -6.889008869555542e+00 9.073415589380006e-01
3.440360831020482e+01 -6.717276835507170e+00 9.864368562901812e-01
3.458467993289018e+01 -6.533018192105192e+00 1.045008652863617e+00
3.476575155557553e+01 -6.340289345255169e+00 1.079523808410171e+00
3.494682317826088e+01 -6.143647005667169e+00 1.088077381209803e+00
3.512789480094623e+01 -5.947815447042283e+00 1.070752483231475e+00
3.530896642363158e+01 -5.757323545384021e+00 1.029583021045349e+00
3.549003804631693e+01 -5.576185097312583e+00 9.681264129068342e-01
3.567110966900228e+01 -5.407682044189912e+00 8.907854279353312e-01
3.585218129168764e+01 -5.254278039340924e+00 8.020804452224257e-01
3.603325291437299e+01 -5.117654555826000e+00 7.060468940886880e-01
3.621432453705834e+01 -4.998837036570665e+00 6.058511212181136e-01
3.639539615974369e+01 -4.898369692472823e+00 5.036327912299640e-01
3.657646778242904e+01 -4.816501620985927e+00 4.005271564923968e-01
3.675753940511439e+01 -4.753357491092437e+00 2.968025938716217e-01
3.693861102779974e+01 -4.709077299011290e+00 1.920566802468846e-01
3.711968265048510e+01 -4.683918321320167e+00 8.543310362372904e-02
3.730075427317045e+01 -4.678317395533227e+00 -2.415860620465082e-02
3.748182589585580e+01 -4.692913449785136e+00 -1.378232206217548e-01
3.766289751854115e+01 -4.728529742297628e+00 -2.564530514142511e-01
3.784396914122650e+01 -4.786113650953128e+00 -3.804842420247038e-01
3.802504076391185e+01 -4.866630263266094e+00 -5.096299215385118e-01
3.820611238659720e+01 -4.970905923237015e+00 -6.425971474779847e-01
3.838718400928256e+01 -5.099421210627357e+00 -7.768194803193587e-01
3.856825563196791e+01 -5.252061759320068e+00 -9.082735714494763e-01
3.874932725465326e+01 -5.427851355789245e+00 -1.031487497279804e+00
3.893039887733861e+01 -5.624713505647865e+00 -1.139866957612476e+00
3.911147050002396e+01 -5.839328065320861e+00 -1.226425755576126e+00
3.929254212270931e+01 -6.067155088681255e+00 -1.284880635790251e+00
3.947361374539467e+01 -6.302673958899700e+00 -1.310879711064110e+00
3.965468536808002e+01 -6.539828417493511e+00 -1.302977993867275e+00
3.983575699076537e+01 -6.772595832529503e+00 -1.262984395773627e+00
4.001682861345072e+01 -6.995548482356750e+00 -1.195527958199560e+00
4.019790023613607e+01 -7.204276134536700e+00 -1.107011781424940e+00
4.037897185882142e+01 -7.395592375290675e+00 -1.004342232838076e+00
4.056004348150677e+01 -7.567520940745851e+00 -8.938244814514466e-01
4.074111510419213e+01 -7.719115842881894e+00 -7.804516073538382e-01
4.092218672687748e+01 -7.850191927402234e+00 -6.676176030767353e-01
4.110325834956283e+01 -7.961034922965185e+00 -5.571557148396875e-01
4.128432997224818e+01 -8.052137466823771e+00 -4.495646864622608e-01
4.146540159493353e+01 -8.123984032004088e+00 -3.443066728140453e-01
4.164647321761888e+01 -8.176890417366627e+00 -2.401033793820758e-01
4.182754484030423e+01 -8.210893918698604e+00 -1.351968500616713e-01
4.200861646298959e+01 -8.225686959671723e+00 -2.756952405414080e-02
4.218968808567494e+01 -8.220587675340626e+00 8.486475129055576e-02
4.237075970836029e+01 -8.194544008395775e+00 2.040774918340103e-01
4.255183133104564e+01 -8.146172255701638e+00 3.317235838592430e-01
4.273290295373099e+01 -8.073836054381905e+00 4.688918632584543e-01
4.291397457641634e+01 -7.975776820931732e+00 6.157826691076645e-01
4.309504619910170e+01 -7.850310233275488e+00 7.713010793306013e-01
4.327611782178705e+01 -7.696102571512339e+00 9.325902110027542e-01
4.345718944447240e+01 -7.512530739456937e+00 1.094596388724818e+00
4.363826106715775e+01 -7.300104669025115e+00 1.249855166756088e+00
4.381933268984310e+01 -7.060887840457520e+00 1.388776575870410e+00
4.400040431252845e+01 -6.798799726244293e+00 1.500698184173860e+00
4.418147593521380e+01 -6.519651613687386e+00 1.575752770746933e+00
4.436254755789916e+01 -6.230796641813074e+00 1.607153036539750e+00
4.454361918058451e+01 -5.940389403446934e+00 1.593059932639973e+00
4.472469080326986e+01 -5.656412861866736e+00 1.537170410092434e+00
4.490576242595521e+01 -5.385744577629636e+00 1.447711187948026e+00
4.508683404864056e+01 -5.133518388114184e+00 1.335316375035072e+00
4.526790567132591e+01 -4.902902119769067e+00 1.210713178643591e+00
4.544897729401126e+01 -4.695249645958699e+00 1.082994720734519e+00
4.563004891669662e+01 -4.510486327101374e+00 9.587772462410747e-01
4.581112053938197e+01 -4.347574449140786e+00 8.421155282755410e-01
4.599219216206732e+01 -4.204948157290517e+00 7.348709621701480e-01
4.617326378475267e+01 -4.080862900127348e+00 6.372480828247893e-01
4.635433540743802e+01 -3.973647027278147e+00 5.483175533784508e-01
4.653540703012337e+01 -3.881866796606110e+00 4.664421807968858e-01
4.671647865280872e+01 -3.804424788452368e+00 3.895866945108418e-01
4.689755027549408e+01 -3.740611944427030e+00 3.155235888497283e-01
4.707862189817943e+01 -3.690130037779854e+00 2.419578822356700e-01
4.725969352086478e+01 -3.653097141457604e+00 1.665937103408566e-01
4.744076514355013e+01 -3.630044822551809e+00 8.716196739385848e-02
4.762183676623548e+01 -3.621912678273848e+00 1.424327319158914e-03
4.780290838892083e+01 -3.630043291055582e+00 -9.283329110576195e-02
4.798398001160619e+01 -3.656178324998688e+00 -1.978043392114616e-01
4.816505163429154e+01 -3.702453741314914e+00 -3.156447989630599e-01
4.834612325697689e+01 -3.771388219091465e+00 -4.484095637177857e-01
4.852719487966224e+01 -3.865852886505175e+00 -5.979013571251890e-01
4.870826650234759e+01 -3.989001426275664e+00 -7.653725203804597e-01
4.888933812503294e+01 -4.144127139219226e+00 -9.510028797051858e-01
4.907040974771829e+01 -4.334399458120080e+00 -1.153081046880675e+00
4.925148137040365e+01 -4.562423934407456e+00 -1.366883614364646e+00
4.943255299308900e+01 -4.829583829400415e+00 -1.583440072437960e+00
4.961362461577435e+01 -5.135185633888721e+00 -1.788730013341600e+00
4.979469623845970e+01 -5.475568076822275e+00 -1.964264038558682e+00
4.997576786114505e+01 -5.843518272532035e+00 -2.090010906520037e+00
5.015683948383040e+01 -6.228441591001796e+00 -2.149646590116565e+00
5.033791110651575e+01 -6.617561404303783e+00 -2.136200831218849e+00
5.051898272920111e+01 -6.997936863333467e+00 -2.054932819610712e+00
5.070005435188646e+01 -7.358583107627700e+00 -1.921506106191606e+00
5.088112597457181e+01 -7.691900405066276e+00 -1.756616919249139e+00
5.106219759725716e+01 -7.994045266529695e+00 -1.580223405860675e+00
5.124326921994251e+01 -8.264422346295540e+00 -1.407859103927979e+00
5.142434084262786e+01 -8.504749822019402e+00 -1.249544486181254e+00
5.160541246531321e+01 -8.718103949275294e+00 -1.110457404974223e+00
5.178648408799857e+01 -8.908161520587218e+00 -9.922929400441138e-01
5.196755571068392e+01 -9.078694348461665e+00 -8.946079854482899e-01
5.214862733336927e+01 -9.233281453581965e+00 -8.158593507259214e-01
5.232969895605462e+01 -9.375177508742693e+00 -7.540974041582872e-01
5.251077057873997e+01 -9.507280313817677e+00 -7.073802850740799e-01
5.269184220142532e+01 -9.632154362219330e+00 -6.739924873400145e-01
5.287291382411068e+01 -9.752081674149103e+00 -6.525372251704349e-01
5.305398544679603e+01 -9.869121703184145e+00 -6.419505942173428e-01
